ALV-6000/E-WIN Data
Date :	"10/10/2017"
Time :	"11:29:34 AM"
Samplename : 	""
SampMemo(0) : 	""
SampMemo(1) : 	""
SampMemo(2) : 	""
SampMemo(3) : 	""
SampMemo(4) : 	""
SampMemo(5) : 	""
SampMemo(6) : 	""
SampMemo(7) : 	""
SampMemo(8) : 	""
SampMemo(9) : 	""
Temperature [K] :	     298.16000
Viscosity [cp]  :	       0.89000
Refractive Index:	       1.33200
Wavelength [nm] :	     632.80000
Angle [°]       :	      90.00000
Duration [s]    :	        30
Runs            :	         1
Mode            :	"SINGLE AUTO CH0"
MeanCR0 [kHz]   :	      69.77094
MeanCR1 [kHz]   :	       0.00000

"Correlation"
  1.25000E-004	 -9.33350E-001
  2.50000E-004	 -3.49120E-001
  3.75000E-004	  2.90267E-001
  5.00000E-004	  5.83207E-001
  6.25000E-004	  6.92805E-001
  7.50000E-004	  7.50216E-001
  8.75000E-004	  7.64954E-001
  1.00000E-003	  7.92285E-001
  1.12500E-003	  7.81836E-001
  1.25000E-003	  8.13016E-001
  1.37500E-003	  8.08837E-001
  1.50000E-003	  8.06802E-001
  1.62500E-003	  8.16646E-001
  1.75000E-003	  8.16921E-001
  1.87500E-003	  7.93440E-001
  2.00000E-003	  7.87966E-001
  2.25000E-003	  8.06361E-001
  2.50000E-003	  7.98415E-001
  2.75000E-003	  7.90386E-001
  3.00000E-003	  8.14362E-001
  3.25000E-003	  7.99762E-001
  3.50000E-003	  7.82137E-001
  3.75000E-003	  8.07241E-001
  4.00000E-003	  7.94850E-001
  4.50000E-003	  7.86629E-001
  5.00000E-003	  7.98108E-001
  5.50000E-003	  7.92237E-001
  6.00000E-003	  7.93860E-001
  6.50000E-003	  7.84167E-001
  7.00000E-003	  7.93406E-001
  7.50000E-003	  7.91509E-001
  8.00000E-003	  7.87557E-001
  9.00000E-003	  7.78257E-001
  1.00000E-002	  7.85096E-001
  1.10000E-002	  7.82553E-001
  1.20000E-002	  7.73438E-001
  1.30000E-002	  7.79487E-001
  1.40000E-002	  7.66963E-001
  1.50000E-002	  7.66496E-001
  1.60000E-002	  7.64312E-001
  1.80000E-002	  7.65435E-001
  2.00000E-002	  7.52361E-001
  2.20000E-002	  7.53055E-001
  2.40000E-002	  7.48862E-001
  2.60000E-002	  7.47738E-001
  2.80000E-002	  7.40321E-001
  3.00000E-002	  7.32055E-001
  3.20000E-002	  7.26365E-001
  3.60000E-002	  7.21466E-001
  4.00000E-002	  7.11706E-001
  4.40000E-002	  7.04571E-001
  4.80000E-002	  6.93120E-001
  5.20000E-002	  6.85362E-001
  5.60000E-002	  6.76496E-001
  6.00000E-002	  6.65467E-001
  6.40000E-002	  6.57542E-001
  7.20000E-002	  6.44117E-001
  8.00000E-002	  6.27354E-001
  8.80000E-002	  6.13341E-001
  9.60000E-002	  5.96390E-001
  1.04000E-001	  5.84953E-001
  1.12000E-001	  5.70265E-001
  1.20000E-001	  5.57018E-001
  1.28000E-001	  5.44447E-001
  1.44000E-001	  5.16789E-001
  1.60000E-001	  4.92793E-001
  1.76000E-001	  4.69646E-001
  1.92000E-001	  4.46214E-001
  2.08000E-001	  4.24949E-001
  2.24000E-001	  4.05633E-001
  2.40000E-001	  3.85549E-001
  2.56000E-001	  3.67920E-001
  2.88000E-001	  3.35100E-001
  3.20000E-001	  3.04864E-001
  3.52000E-001	  2.76636E-001
  3.84000E-001	  2.52183E-001
  4.16000E-001	  2.30043E-001
  4.48000E-001	  2.09156E-001
  4.80000E-001	  1.91535E-001
  5.12000E-001	  1.74231E-001
  5.76000E-001	  1.44939E-001
  6.40000E-001	  1.20316E-001
  7.04000E-001	  1.00014E-001
  7.68000E-001	  8.29522E-002
  8.32000E-001	  6.83230E-002
  8.96000E-001	  5.70148E-002
  9.60000E-001	  4.65372E-002
  1.02400E+000	  3.85811E-002
  1.15200E+000	  2.55021E-002
  1.28000E+000	  1.76310E-002
  1.40800E+000	  1.12252E-002
  1.53600E+000	  8.32360E-003
  1.66400E+000	  5.24031E-003
  1.79200E+000	  2.56478E-003
  1.92000E+000	  1.78229E-003
  2.01600E+000	  1.17011E-003
  2.27200E+000	  8.57463E-004
  2.52800E+000	 -1.64607E-003
  2.78400E+000	 -2.99072E-003
  3.04000E+000	 -2.68049E-003
  3.29600E+000	 -2.13642E-003
  3.55200E+000	 -7.83238E-004
  3.80800E+000	 -1.16786E-003
  4.06400E+000	 -1.07034E-003
  4.57600E+000	 -2.51991E-003
  5.08800E+000	 -1.01874E-003
  5.60000E+000	 -2.87289E-003
  6.11200E+000	 -3.12264E-004
  6.62400E+000	 -1.10587E-003
  7.13600E+000	 -7.72022E-004
  7.64800E+000	  2.54329E-004
  8.16000E+000	 -1.20289E-003
  9.18400E+000	 -1.48398E-003
  1.02080E+001	  3.66615E-003
  1.12320E+001	 -1.41032E-003
  1.22560E+001	  1.91597E-003
  1.32800E+001	  4.40376E-004
  1.43040E+001	 -3.99579E-004
  1.53280E+001	  1.79165E-004
  1.63520E+001	  1.56612E-003
  1.84000E+001	  1.24581E-004
  2.04480E+001	  4.82395E-003
  2.24960E+001	 -4.45774E-004
  2.45440E+001	 -2.85922E-004
  2.65920E+001	 -1.93642E-003
  2.86400E+001	 -2.08396E-003
  3.06880E+001	 -1.31856E-004
  3.27360E+001	  1.34409E-004
  3.68320E+001	  7.85121E-004
  4.09280E+001	  2.57320E-003
  4.50240E+001	  1.69110E-003
  4.91200E+001	  1.52490E-003
  5.32160E+001	 -2.84966E-003
  5.73120E+001	  1.66347E-004
  6.14080E+001	 -6.21602E-004
  6.55040E+001	 -4.44192E-004
  7.36960E+001	 -8.74421E-004
  8.18880E+001	  7.74195E-004
  9.00800E+001	 -6.68399E-004
  9.82720E+001	  6.20603E-004
  1.06464E+002	  2.51398E-004
  1.14656E+002	 -6.40242E-004
  1.22848E+002	 -8.80119E-004
  1.31040E+002	 -3.78159E-004
  1.47424E+002	 -3.67632E-004
  1.63808E+002	  3.36040E-004
  1.80192E+002	  5.15836E-004
  1.96576E+002	 -5.97897E-004
  2.12960E+002	 -5.62748E-004
  2.29344E+002	 -2.21603E-004
  2.45728E+002	 -1.00931E-003
  2.62112E+002	  4.99762E-005
  2.94880E+002	 -4.45515E-004
  3.27648E+002	  2.38950E-004
  3.60416E+002	 -2.43196E-004
  3.93184E+002	  4.07174E-004
  4.25952E+002	 -4.58565E-004
  4.58720E+002	  6.75246E-004
  4.91488E+002	  6.11771E-004
  5.24256E+002	  6.52772E-004
  5.89792E+002	 -5.57910E-004
  6.55328E+002	  2.70392E-004
  7.20864E+002	  3.11737E-005
  7.86400E+002	  1.55456E-004
  8.51936E+002	 -4.45554E-006
  9.17472E+002	  5.09089E-004
  9.83008E+002	 -5.26386E-004
  1.04854E+003	  2.60817E-004
  1.17962E+003	 -3.05977E-004
  1.31069E+003	 -4.67314E-004
  1.44176E+003	 -2.09488E-004
  1.57283E+003	  3.73196E-004
  1.70390E+003	 -6.25687E-005
  1.83498E+003	 -4.87196E-004
  1.96605E+003	 -2.89510E-005
  2.09712E+003	 -3.89333E-004
  2.35926E+003	 -5.95934E-006
  2.62141E+003	  4.29823E-004
  2.88355E+003	 -9.22538E-005
  3.14570E+003	 -7.73633E-005
  3.40784E+003	  2.71372E-004
  3.66998E+003	 -2.10067E-004
  3.93213E+003	 -4.02557E-004
  4.19427E+003	 -2.28638E-004
  4.71856E+003	  1.14914E-004
  5.24285E+003	 -5.92145E-005
  5.76714E+003	  1.44023E-004
  6.29142E+003	 -4.01690E-005
  6.81571E+003	 -2.15613E-004
  7.34000E+003	  2.31879E-004
  7.86429E+003	 -3.20882E-005

"Count Rate"
       0.11719	      65.07282
       0.23438	      62.78207
       0.35156	      59.23482
       0.46875	      67.85079
       0.58594	      66.14982
       0.70313	      68.52605
       0.82031	      73.94523
       0.93750	      60.60243
       1.05469	      71.46642
       1.17188	      65.67970
       1.28906	      71.84252
       1.40625	      64.91042
       1.52344	      67.01313
       1.64063	      69.46629
       1.75781	      70.86810
       1.87500	      68.83376
       1.99219	      77.94550
       2.10938	      65.96178
       2.22656	      67.84225
       2.34375	      73.30415
       2.46094	      75.82570
       2.57813	      61.31189
       2.69531	      69.85093
       2.81250	      74.70596
       2.92969	      68.53460
       3.04688	      74.15037
       3.16406	      72.04766
       3.28125	      68.69701
       3.39844	      66.11563
       3.51563	      74.67177
       3.63281	      61.92731
       3.75000	      73.06483
       3.86719	      61.49993
       3.98438	      63.14107
       4.10156	      73.45802
       4.21875	      67.72258
       4.33594	      78.74897
       4.45313	      71.89381
       4.57031	      65.26087
       4.68750	      62.78207
       4.80469	      66.43189
       4.92188	      71.56045
       5.03906	      67.73968
       5.15625	      65.03864
       5.27344	      69.79110
       5.39063	      70.61166
       5.50781	      63.91890
       5.62500	      64.71383
       5.74219	      74.63758
       5.85938	      77.48393
       5.97656	      61.79055
       6.09375	      75.45815
       6.21094	      62.81626
       6.32813	      75.05641
       6.44531	      67.13280
       6.56250	      74.38116
       6.67969	      64.92751
       6.79688	      67.70548
       6.91406	      66.01306
       7.03125	      75.60346
       7.14844	      63.85052
       7.26563	      67.81660
       7.38281	      69.45774
       7.50000	      70.03898
       7.61719	      68.33801
       7.73438	      66.06435
       7.85156	      78.33869
       7.96875	      70.97921
       8.08594	      73.01354
       8.20313	      62.50855
       8.32031	      64.26080
       8.43750	      71.54335
       8.55469	      67.32084
       8.67188	      73.20158
       8.78906	      62.57693
       8.90625	      74.08199
       9.02344	      76.14196
       9.14063	      69.80819
       9.25781	      65.44892
       9.37500	      79.72340
       9.49219	      71.72285
       9.60938	      72.97080
       9.72656	      67.87643
       9.84375	      70.19283
       9.96094	      67.93627
      10.07813	      68.38074
      10.19531	      65.08138
      10.31250	      74.79999
      10.42969	      75.86843
      10.54688	      70.41507
      10.66406	      72.96225
      10.78125	      64.01292
      10.89844	      73.26997
      11.01563	      73.87685
      11.13281	      75.45815
      11.25000	      66.25240
      11.36719	      70.70569
      11.48438	      65.95322
      11.60156	      67.43196
      11.71875	      72.97935
      11.83594	      78.97121
      11.95313	      71.79978
      12.07031	      76.44112
      12.18750	      72.76566
      12.30469	      70.54328
      12.42188	      60.50841
      12.53906	      69.52612
      12.65625	      75.46670
      12.77344	      67.47470
      12.89063	      68.54314
      13.00781	      72.75711
      13.12500	      67.79096
      13.24219	      62.14100
      13.35938	      68.06448
      13.47656	      63.80778
      13.59375	      68.64572
      13.71094	      74.44099
      13.82813	      64.78220
      13.94531	      68.49186
      14.06250	      61.73927
      14.17969	      67.61146
      14.29688	      70.23557
      14.41406	      70.43217
      14.53125	      71.93654
      14.64844	      71.42368
      14.76563	      84.56989
      14.88281	      66.03870
      15.00000	      74.25294
      15.11719	      69.27824
      15.23438	      72.47504
      15.35156	      74.83418
      15.46875	      77.16767
      15.58594	      68.16705
      15.70313	      70.42361
      15.82031	      64.79930
      15.93750	      69.71416
      16.05469	      61.57686
      16.17188	      74.88546
      16.28906	      70.70569
      16.40625	      62.32050
      16.52344	      69.58595
      16.64063	      69.64579
      16.75781	      77.60360
      16.87500	      68.43203
      16.99219	      61.97860
      17.10938	      63.98728
      17.22656	      73.75718
      17.34375	      77.11639
      17.46094	      75.71458
      17.57813	      75.86843
      17.69531	      71.40659
      17.81250	      73.79992
      17.92969	      61.83329
      18.04688	      75.87698
      18.16406	      65.08138
      18.28125	      67.16698
      18.39844	      66.67123
      18.51563	      67.73112
      18.63281	      71.85107
      18.75000	      68.77393
      18.86719	      63.20945
      18.98438	      83.55272
      19.10156	      72.38102
      19.21875	      63.55990
      19.33594	      68.85941
      19.45313	      66.39771
      19.57031	      69.90221
      19.68750	      72.12459
      19.80469	      73.06483
      19.92188	      63.09833
      20.03906	      70.73988
      20.15625	      69.82529
      20.27344	      62.51709
      20.39063	      73.97087
      20.50781	      66.79089
      20.62500	      69.79964
      20.74219	      72.24426
      20.85938	      72.55197
      20.97656	      73.52640
      21.09375	      73.15884
      21.21094	      69.22695
      21.32813	      65.49165
      21.44531	      66.72251
      21.56250	      68.14996
      21.67969	      75.14189
      21.79688	      65.65406
      21.91406	      63.59409
      22.03125	      69.92786
      22.14844	      76.81721
      22.26563	      71.51771
      22.38281	      65.97032
      22.50000	      70.76552
      22.61719	      72.42375
      22.73438	      70.51764
      22.85156	      68.36365
      22.96875	      70.84245
      23.08594	      73.23578
      23.20313	      71.41514
      23.32031	      71.27837
      23.43750	      70.03043
      23.55469	      73.29561
      23.67188	      71.26983
      23.78906	      71.74850
      23.90625	      69.67998
      24.02344	      75.51798
      24.14063	      82.58685
      24.25781	      65.80791
      24.37500	      62.63676
      24.49219	      70.31250
      24.60938	      69.63724
      24.72656	      73.73154
      24.84375	      75.12479
      24.96094	      68.20124
      25.07813	      75.38123
      25.19531	      73.61187
      25.31250	      68.10722
      25.42969	      76.91979
      25.54688	      79.31312
      25.66406	      68.00465
      25.78125	      71.47498
      25.89844	      71.79978
      26.01563	      71.84252
      26.13281	      69.53467
      26.25000	      69.03891
      26.36719	      75.68039
      26.48438	      66.64558
      26.60156	      67.26955
      26.71875	      75.16753
      26.83594	      69.48338
      26.95313	      63.98728
      27.07031	      59.45706
      27.18750	      64.19242
      27.30469	      61.61105
      27.42188	      75.33849
      27.53906	      60.75629
      27.65625	      64.54288
      27.77344	      68.12431
      27.89063	      70.07317
      28.00781	      64.76511
      28.12500	      68.03029
      28.24219	      74.66322
      28.35938	      67.26955
      28.47656	      66.74815
      28.59375	      84.90324
      28.71094	      67.88498
      28.82813	      68.51750
      28.94531	      68.67136
      29.06250	      71.15871
      29.17969	      66.76525
      29.29688	      76.48386
      29.41406	      81.38163
      29.53125	      59.83315
      29.64844	      63.97873
      29.76563	      73.15030
      29.88281	      69.18422
